Time (s),Arm Angle (deg),Weight Rel Angle (deg),Sling Rel Angle (deg),Arm Omega (deg/s),Weight Rel Omega (deg/s),Sling Rel Omega (deg/s),Proj X (m),Proj Y (m),Proj VX (m/s),Proj VY (m/s),Normal Force (N),Energy Eff,Range Eff,Check Function
0.0100,-29.9748,29.9863,-138.4602,4.9837,-2.7155,0.5560,0.3825,0.1000,0.2591,-0.0000,3.7830,0.000000,5.406927,3.095132e-7
0.0200,-29.9004,29.9457,-138.4519,9.9004,-5.4055,1.1160,0.3864,0.1000,0.5149,-0.0000,3.7258,0.001485,2.720536,8.517510e-7
0.0300,-29.7768,29.8781,-138.4378,14.8128,-8.1154,1.6984,0.3928,0.1000,0.7709,0.0000,3.6449,0.001486,1.816904,1.544695e-6
0.0400,-29.6041,29.7833,-138.4178,19.7190,-10.8549,2.3143,0.4018,0.1000,1.0274,0.0000,3.5308,0.001487,1.363349,2.390053e-6
0.0500,-29.3824,29.6609,-138.3914,24.6167,-13.6337,2.9749,0.4134,0.1000,1.2844,-0.0000,3.3823,0.001489,1.090520,3.390020e-6
0.0600,-29.1118,29.5104,-138.3581,29.5037,-16.4616,3.6917,0.4275,0.1000,1.5422,-0.0000,3.1979,0.001491,0.908232,4.547589e-6
0.0700,-28.7924,29.3314,-138.3173,34.3778,-19.3480,4.4762,0.4442,0.1000,1.8010,-0.0000,2.9757,0.001495,0.777735,5.866715e-6
0.0800,-28.4243,29.1232,-138.2683,39.2368,-22.3026,5.3399,0.4635,0.1000,2.0610,-0.0000,2.7130,0.001499,0.679618,7.352528e-6
0.0900,-28.0077,28.8851,-138.2102,44.0781,-25.3347,6.2950,0.4855,0.1000,2.3226,-0.0000,2.4066,0.001503,0.603080,9.011595e-6
0.1000,-27.5428,28.6163,-138.1421,48.8994,-28.4534,7.3537,0.5100,0.1000,2.5861,-0.0000,2.0526,0.001509,0.541634,1.085225e-5
0.1100,-27.0298,28.3157,-138.0628,53.6981,-31.6680,8.5288,0.5372,0.1000,2.8519,-0.0000,1.6458,0.001516,0.491145,1.288498e-5
0.1200,-26.4690,27.9826,-137.9711,58.4719,-34.9874,9.8337,0.5670,0.1000,3.1207,-0.0000,1.1799,0.001524,0.448851,1.512294e-5
0.1300,-25.8605,27.6156,-137.8656,63.2183,-38.4204,11.2825,0.5996,0.1000,3.3929,-0.0000,0.6471,0.001534,0.412837,1.758248e-5
0.1400,-25.2047,27.2137,-137.7449,67.9346,-41.9756,12.8903,0.6349,0.1000,3.6694,-0.0000,0.0375,0.001546,0.381732,2.028394e-5
0.1500,-24.5019,26.7757,-137.6074,72.6187,-45.6616,14.6258,0.6730,0.1000,3.9500,0.0028,0.0000,0.001560,0.355325,2.321153e-5
0.1600,-23.7524,26.3000,-137.4521,77.2681,-49.4868,16.4386,0.7139,0.1001,4.2343,0.0122,0.0000,0.001574,0.333811,2.637342e-5
0.1700,-22.9567,25.7854,-137.2783,81.8809,-53.4593,18.3322,0.7577,0.1003,4.5227,0.0290,0.0000,0.001589,0.316596,2.979580e-5
0.1800,-22.1149,25.2303,-137.0852,86.4550,-57.5875,20.3102,0.8044,0.1007,4.8154,0.0540,0.0000,0.001606,0.303257,3.349566e-5
0.1900,-21.2277,24.6331,-136.8718,90.9888,-61.8793,22.3759,0.8540,0.1014,5.1130,0.0880,0.0000,0.001624,0.293512,3.749166e-5
0.2000,-20.2953,23.9922,-136.6374,95.4811,-66.3427,24.5326,0.9067,0.1025,5.4158,0.1322,0.0000,0.001644,0.287187,4.180425e-5
0.2100,-19.3182,23.3057,-136.3809,99.9309,-70.9858,26.7832,0.9624,0.1041,5.7242,0.1874,0.0000,0.001666,0.284192,4.645570e-5
0.2200,-18.2968,22.5718,-136.1014,104.3379,-75.8167,29.1307,1.0212,0.1063,6.0385,0.2548,0.0000,0.001689,0.284509,5.147015e-5
0.2300,-17.2316,21.7887,-135.7979,108.7023,-80.8437,31.5777,1.0832,0.1092,6.3593,0.3358,0.0000,0.001716,0.288164,5.687363e-5
0.2400,-16.1229,20.9543,-135.4695,113.0250,-86.0751,34.1266,1.1484,0.1130,6.6868,0.4317,0.0000,0.001744,0.295212,6.269403e-5
0.2500,-14.9712,20.0665,-135.1151,117.3076,-91.5198,36.7799,1.2169,0.1179,7.0213,0.5441,0.0000,0.001775,0.305715,6.896108e-5
0.2600,-13.7769,19.1231,-134.7336,121.5526,-97.1870,39.5396,1.2888,0.1240,7.3631,0.6746,0.0000,0.001809,0.319719,7.570638e-5
0.2700,-12.5403,18.1220,-134.3239,125.7635,-103.0866,42.4092,1.3642,0.1315,7.7125,0.8251,0.0000,0.001846,0.337225,8.296710e-5
0.2800,-11.2617,17.0606,-133.8850,129.9448,-109.2291,45.3916,1.4431,0.1405,8.0697,0.9975,0.0000,0.001887,0.358192,9.077769e-5
0.2900,-9.9415,15.9365,-133.4156,134.1026,-115.6262,48.5369,1.5256,0.1515,8.4366,1.1918,0.0000,0.001932,0.382064,1.129558e-4
0.3000,-8.5797,14.7472,-132.9124,138.2445,-122.2914,52.1431,1.6119,0.1644,8.8250,1.3968,0.0000,0.001986,0.405922,1.093552e-4
0.3100,-7.1766,13.4898,-132.3723,142.3781,-129.2381,55.8853,1.7022,0.1795,9.2237,1.6320,0.0000,0.002045,0.433027,1.196337e-4
0.3200,-5.7322,12.1614,-131.7942,146.5138,-136.4825,59.7658,1.7964,0.1972,9.6325,1.9009,0.0000,0.002109,0.463263,1.307243e-4
0.3300,-4.2463,10.7591,-131.1765,150.6634,-144.0430,63.7869,1.8949,0.2177,10.0512,2.2071,0.0000,0.002179,0.496468,1.426786e-4
0.3400,-2.7188,9.2794,-130.5180,154.8408,-151.9405,67.9508,1.9975,0.2414,10.4790,2.5548,0.0000,0.002256,0.532429,1.555470e-4
0.3500,-1.1493,7.7191,-129.8170,159.0623,-160.1992,72.2600,2.1045,0.2689,10.9150,2.9484,0.0000,0.002341,0.570883,1.693782e-4
0.3600,0.4627,6.0742,-129.0723,163.3465,-168.8472,76.7167,2.2158,0.3006,11.3579,3.3928,0.0000,0.002433,0.611505,1.842176e-4
0.3700,2.1179,4.3407,-128.2822,167.7149,-177.9175,81.3230,2.3316,0.3370,11.8058,3.8936,0.0000,0.002534,0.653908,2.001051e-4
0.3800,3.8173,2.5143,-127.4453,172.1925,-187.4484,86.0812,2.4519,0.3787,12.2564,4.4568,0.0000,0.002646,0.697627,2.170733e-4
0.3900,5.5622,0.5901,-126.5601,176.8079,-197.4854,90.9933,2.5768,0.4263,12.7067,5.0889,0.0000,0.002768,0.742112,2.351436e-4
0.4000,7.3540,-1.4373,-125.6249,181.5942,-208.0824,96.0612,2.7061,0.4807,13.1528,5.7973,0.0000,0.002904,0.786714,2.543226e-4
0.4100,9.1948,-3.5737,-124.6383,186.5902,-219.3037,101.2948,2.8398,0.5425,13.5906,6.5897,0.0000,0.003054,0.830638,2.746625e-4
0.4200,11.0867,-5.8257,-123.5985,191.8410,-231.2261,106.6917,2.9778,0.6128,14.0138,7.4752,0.0000,0.003220,0.873021,2.960330e-4
0.4300,13.0326,-8.2008,-122.5039,197.3998,-243.9428,112.2487,3.1200,0.6924,14.4151,8.4636,0.0000,0.003404,0.912846,3.183864e-4
0.4400,15.0359,-10.7076,-121.3530,203.3297,-257.5667,117.9648,3.2660,0.7824,14.7854,9.5658,0.0000,0.003611,0.948922,3.415942e-4
0.4500,17.1007,-13.3557,-120.1441,209.7065,-272.2361,123.8370,3.4156,0.8841,15.1138,10.7939,0.0000,0.003842,0.979885,3.654572e-4
0.4600,19.2319,-16.1563,-118.8758,216.6223,-288.1222,129.8595,3.5681,0.9988,15.3867,12.1613,0.0000,0.004102,1.004181,3.896797e-4
0.4700,21.4353,-19.1229,-117.5465,224.1899,-305.4384,136.0221,3.7231,1.1279,15.5873,13.6832,0.0000,0.004398,1.020053,4.138316e-4
0.4800,23.7183,-22.2708,-116.1549,232.5497,-324.4541,142.3085,3.8796,1.2730,15.6947,15.3766,0.0000,0.004735,1.025531,4.372932e-4
0.4900,26.0895,-25.6187,-114.7000,241.8787,-345.5130,148.6930,4.0366,1.4360,15.6829,17.2609,0.0000,0.005122,1.018423,4.591720e-4
0.5000,28.5598,-29.1893,-113.1808,252.4038,-369.0594,155.1363,4.1927,1.6189,15.5189,19.3584,0.0000,0.005572,0.996315,4.781756e-4
0.5100,31.1426,-33.0101,-111.5972,264.4196,-395.6752,161.5787,4.3463,1.8240,15.1608,21.6948,0.0000,0.006099,0.956578,5.282988e-4
0.5200,33.8545,-37.1156,-109.9496,278.3144,-426.1311,167.9314,4.4951,2.0537,14.5542,24.3001,0.0000,0.006726,0.896406,6.407610e-4
0.5300,36.7168,-41.5490,-108.2393,294.6053,-461.4577,174.0635,4.6363,2.3110,13.6274,27.2090,0.0000,0.007481,0.812887,7.774534e-4
0.5400,39.7569,-46.3655,-106.4696,313.9821,-503.0324,179.7892,4.7663,2.5991,12.2851,30.4611,0.0000,0.008409,0.703170,9.448092e-4
0.5500,43.0097,-51.6364,-104.6457,337.3457,-552.6528,184.8657,4.8802,2.9215,10.3991,34.0985,0.0000,0.009570,0.564838,1.151052e-3
0.5600,46.5207,-57.4525,-102.7753,365.7732,-612.4576,189.0548,4.9719,3.2824,7.7999,38.1555,0.0000,0.011053,0.396739,1.405540e-3
0.5700,50.3452,-63.9256,-100.8675,400.1618,-684.1788,192.4318,5.0331,3.6860,4.2820,42.6257,0.0000,0.012975,0.200867,1.714460e-3
0.5800,54.5419,-71.1714,-98.9248,439.7671,-766.1165,196.5135,5.0539,4.1359,-0.3220,47.3696,0.0000,0.015446,-0.013717,2.065916e-3
0.5900,59.1378,-79.2396,-96.9159,478.1299,-844.7460,207.2714,5.0235,4.6329,-5.8696,51.9279,0.0000,0.018407,-0.225079,2.402788e-3
0.6000,64.0451,-87.9408,-94.7127,498.6202,-885.5900,237.9940,4.9362,5.1710,-11.4780,55.4626,0.0000,0.021351,-0.400149,2.643734e-3
0.6100,68.9967,-96.7141,-92.0530,486.1336,-857.4040,298.6878,4.7975,5.7369,-16.0762,57.4931,0.0000,0.023657,-0.523064,2.794830e-3
0.6200,73.6856,-104.9160,-88.6755,449.3383,-778.0607,378.1790,4.6169,6.3176,-20.0425,58.5232,0.0000,0.025537,-0.618539,2.926889e-3
0.6300,77.9679,-112.2400,-84.4914,407.4138,-687.2314,457.5184,4.3946,6.9057,-24.5970,59.0157,0.0000,0.027559,-0.717045,3.023736e-3
0.6400,81.8504,-118.6922,-79.5569,370.1642,-605.3329,527.5799,4.1209,7.4956,-30.3340,58.8259,0.0000,0.029913,-0.823254,3.022276e-3
0.6500,85.3933,-124.3906,-73.9756,339.4780,-536.4483,586.9893,3.7841,8.0786,-37.1893,57.5685,0.0000,0.032533,-0.922355,2.892668e-3
0.6600,88.6592,-129.4597,-67.8487,314.5656,-479.0943,636.9243,3.3746,8.6423,-44.8002,54.8966,0.0000,0.035295,-0.993288,2.628059e-3
0.6700,91.6997,-134.0028,-61.2635,294.2017,-430.8505,678.9152,2.8872,9.1711,-52.6963,50.5824,0.0000,0.038080,-1.016431,3.108234e-3
0.6800,94.5574,-138.1042,-54.3900,277.8279,-390.4119,695.2890,2.3617,9.6750,-52.4044,50.2043,0.0000,0.038252,-1.017550,4.572347e-5
0.6900,97.2649,-141.8283,-47.3663,264.0383,-355.1628,709.0785,1.8391,10.1752,-52.1158,49.8300,0.0000,0.038422,-1.018687,4.189026e-5
0.7000,99.8448,-145.2207,-40.2150,252.2264,-323.9172,720.8904,1.3193,10.6716,-51.8305,49.4594,0.0000,0.038584,-1.019840,3.851865e-5
0.7100,102.3144,-148.3170,-32.9536,241.9345,-295.7921,731.1824,0.8024,11.1644,-51.5484,49.0924,0.0000,0.038735,-1.021011,3.556433e-5
0.7200,104.6873,-151.1447,-25.5953,232.8123,-270.1248,740.3045,0.2884,11.6535,-51.2695,48.7289,0.0000,0.038868,-1.022199,3.298074e-5
0.7300,106.9737,-153.7260,-18.1505,224.5873,-246.4116,748.5296,-0.2230,12.1390,-50.9937,48.3690,0.0000,0.038982,-1.023404,3.072459e-5
0.7400,109.1813,-156.0782,-10.6270,217.0427,-224.2649,756.0742,-0.7315,12.6209,-50.7210,48.0125,0.0000,0.039074,-1.024627,2.875834e-5
0.7500,111.3162,-158.2155,-3.0307,210.0031,-203.3825,763.1138,-1.2374,13.0992,-50.4514,47.6594,0.0000,0.039140,-1.025866,2.705065e-5
0.7600,113.3826,-160.1493,4.6341,203.3240,-183.5259,769.7928,-1.7406,13.5741,-50.1847,47.3096,0.0000,0.039178,-1.027124,2.557594e-5
0.7700,115.3835,-161.8888,12.3644,196.8847,-164.5052,776.2322,-2.2411,14.0454,-49.9209,46.9631,0.0000,0.039187,-1.028398,2.431355e-5
0.7800,117.3208,-163.4416,20.1583,190.5827,-146.1676,782.5341,-2.7390,14.5134,-49.6601,46.6199,0.0000,0.039166,-1.029691,2.324697e-5
0.7900,119.1953,-164.8140,28.0149,184.3307,-128.3894,788.7862,-3.2343,14.9778,-49.4021,46.2798,0.0000,0.039112,-1.031001,2.236300e-5
0.8000,121.0073,-166.0109,35.9341,178.0535,-111.0693,795.0633,-3.7270,15.4390,-49.1468,45.9429,0.0000,0.039024,-1.032328,2.165112e-5
0.8100,122.7561,-167.0366,43.9165,171.6866,-94.1242,801.4303,-4.2172,15.8967,-48.8944,45.6090,0.0000,0.038903,-1.033674,2.110296e-5
0.8200,124.4405,-167.8944,51.9632,165.1744,-77.4851,807.9424,-4.7049,16.3512,-48.6446,45.2782,0.0000,0.038748,-1.035037,2.071181e-5
0.8300,126.0589,-168.5872,-299.9240,158.4697,-61.0940,814.6471,-5.1901,16.8023,-48.3976,44.9504,0.0000,0.038558,-1.036418,2.047224e-5
0.8400,127.6091,-169.1170,-291.7431,151.5327,-44.9019,821.5841,-5.6729,17.2502,-48.1531,44.6255,0.0000,0.038333,-1.037817,2.037985e-5
0.8500,129.0887,-169.4857,-283.4915,144.3301,-28.8659,828.7867,-6.1532,17.6948,-47.9113,44.3035,0.0000,0.038075,-1.039233,2.043104e-5
0.8600,130.4948,-169.6947,-275.1664,136.8350,-12.9483,836.2818,-6.6311,18.1362,-47.6720,43.9844,0.0000,0.037784,-1.040668,2.062294e-5
0.8700,131.8243,-169.7450,-266.7648,129.0259,2.8858,844.0909,-7.1067,18.5745,-47.4352,43.6681,0.0000,0.037461,-1.042121,2.095340e-5
0.8800,133.0742,-169.6372,-258.2835,120.8863,18.6696,852.2305,-7.5798,19.0096,-47.2009,43.3545,0.0000,0.037108,-1.043591,2.142118e-5
0.8900,134.2409,-169.3716,-249.7190,112.4038,34.4365,860.7130,-8.0507,19.4416,-46.9690,43.0437,0.0000,0.036725,-1.045080,2.202616e-5
0.9000,135.3211,-168.9484,-241.0680,103.5695,50.2208,869.5474,-8.5192,19.8705,-46.7396,42.7355,0.0000,0.036314,-1.046587,2.276970e-5
0.9100,136.3111,-168.3670,-232.3269,94.3768,66.0599,878.7401,-8.9855,20.2963,-46.5125,42.4300,0.0000,0.035877,-1.048112,2.365522e-5
0.9200,137.2074,-167.6269,-223.4920,84.8207,81.9954,888.2962,-9.4495,20.7191,-46.2877,42.1271,0.0000,0.035417,-1.049656,2.468876e-5
0.9300,138.0063,-166.7266,-214.5597,74.8964,98.0747,898.2205,-9.9112,21.1389,-46.0652,41.8268,0.0000,0.034935,-1.051217,2.587984e-5
0.9400,138.7041,-165.6647,-205.5264,64.5980,114.3530,908.5189,-10.3708,21.5557,-45.8450,41.5290,0.0000,0.034434,-1.052797,2.724239e-5
0.9500,139.2970,-164.4387,-196.3881,53.9170,130.8953,919.1998,-10.8282,21.9695,-45.6271,41.2337,0.0000,0.033915,-1.054395,2.879599e-5
0.9600,139.7811,-163.0457,-187.1410,42.8408,147.7788,930.2760,-11.2833,22.3803,-45.4113,40.9408,0.0000,0.033382,-1.056012,3.056737e-5
0.9700,140.1524,-161.4817,-177.7812,31.3503,165.0960,941.7665,-11.7364,22.7883,-45.1977,40.6504,0.0000,0.032836,-1.057646,3.259244e-5
0.9800,140.4067,-159.7419,-168.3042,19.4179,182.9586,953.6990,-12.1873,23.1934,-44.9862,40.3623,0.0000,0.032279,-1.059300,3.491883e-5
0.9900,140.5392,-157.8202,-158.7056,7.0044,201.5025,966.1125,-12.6361,23.5955,-44.7769,40.0766,0.0000,0.031715,-1.060971,3.760955e-5
1.0000,140.5467,-155.7114,-148.9820,-5.1820,219.8513,978.2989,-13.0829,23.9949,-44.5696,39.7932,0.0000,0.031146,-1.062661,4.020107e-5
1.0100,140.4362,-153.4235,-139.1403,-17.0181,237.8932,990.1349,-13.5275,24.3914,-44.3644,39.5121,0.0000,0.030580,-1.064370,4.340994e-5
1.0200,140.2044,-150.9500,-129.1773,-29.4490,257.0008,1002.5658,-13.9701,24.7851,-44.1612,39.2332,0.0000,0.030020,-1.066097,4.714620e-5
1.0300,139.8449,-148.2792,-119.0866,-42.5690,277.4113,1015.6859,-14.4108,25.1761,-43.9599,38.9566,0.0000,0.029467,-1.067843,5.154672e-5
1.0400,139.3503,-145.3965,-108.8609,-56.5022,299.4213,1029.6190,-14.8494,25.5643,-43.7607,38.6821,0.0000,0.028925,-1.069607,5.679384e-5
1.0500,138.7116,-142.2842,-98.4910,-71.4104,323.4048,1044.5272,-15.2860,25.9497,-43.5633,38.4098,0.0000,0.028395,-1.071390,6.313297e-5
1.0600,137.9181,-138.9202,-87.9664,-87.5045,349.8355,1060.6214,-15.7206,26.3325,-43.3679,38.1397,0.0000,0.027880,-1.073191,7.089753e-5
1.0700,136.9567,-135.2773,-77.2737,-105.0570,379.3138,1078.1739,-16.1533,26.7125,-43.1744,37.8716,0.0000,0.027383,-1.075011,8.054257e-5
1.0800,135.8110,-131.3213,-66.3969,-124.4140,412.5929,1097.5308,-16.5841,27.0899,-42.9827,37.6056,0.0000,0.026908,-1.076850,9.268418e-5
1.0900,134.4610,-127.0098,-55.3157,-145.9967,450.5852,1119.1136,-17.0130,27.4647,-42.7929,37.3416,0.0000,0.026461,-1.078707,1.081253e-4
1.1000,132.8821,-122.2906,-44.0057,-170.2642,494.2880,1143.3811,-17.4400,27.8368,-42.6048,37.0796,0.0000,0.026048,-1.080583,1.277909e-4
1.1100,131.0456,-117.1023,-32.4380,-197.5525,544.4618,1170.6693,-17.8651,28.2063,-42.4186,36.8196,0.0000,0.025680,-1.082477,1.523217e-4
1.1200,128.9217,-111.3810,-20.5829,-227.5839,600.6321,1200.7007,-18.2884,28.5732,-42.2341,36.5616,0.0000,0.025371,-1.084390,1.806451e-4
1.1300,126.4913,-105.0827,-8.4214,-258.2587,658.6220,1231.3756,-18.7098,28.9375,-42.0513,36.3055,0.0000,0.025144,-1.086322,2.064429e-4
1.1400,123.7734,-98.2409,4.0277,-283.7155,706.5719,1256.8324,-19.1294,29.2993,-41.8703,36.0513,0.0000,0.025026,-1.088272,2.142172e-4
1.1500,120.8664,-91.0499,16.6659,-294.4701,725.1800,1267.5869,-19.5472,29.6585,-41.6909,35.7990,0.0000,0.025045,-1.090241,1.871793e-4
1.1600,117.9536,-83.8773,29.3098,-284.7832,702.7119,1257.9000,-19.9632,30.0153,-41.5132,35.5485,0.0000,0.025215,-1.092229,1.324448e-4
1.1700,115.2221,-77.0987,41.7725,-259.8296,649.6470,1232.9464,-20.3775,30.3695,-41.3372,35.2998,0.0000,0.025524,-1.094236,8.193013e-5
1.1800,112.7743,-70.9181,53.9515,-229.5341,586.1120,1202.6510,-20.7900,30.7213,-41.1627,35.0530,0.0000,0.025943,-1.096261,5.237621e-5
1.1900,110.6273,-65.3670,65.8296,-200.3374,525.1036,1173.4542,-21.2007,31.0706,-40.9899,34.8079,0.0000,0.026445,-1.098304,4.200835e-5
1.2000,108.7560,-60.3919,-282.5679,-174.5505,471.2073,1147.6674,-21.6098,31.4174,-40.8187,34.5646,0.0000,0.027010,-1.100367,3.620299e-5
1.2100,107.1240,-55.9176,-271.2047,-152.4329,424.8511,1125.5497,-22.0171,31.7619,-40.6490,34.3230,0.0000,0.027626,-1.102448,3.213487e-5
1.2200,105.6965,-51.8729,-260.0460,-133.5624,385.1012,1106.6792,-22.4228,32.1039,-40.4808,34.0832,0.0000,0.028282,-1.104548,2.888915e-5
1.2300,104.4438,-48.1975,-249.0621,-117.3934,350.7921,1090.5103,-22.8267,32.4435,-40.3142,33.8450,0.0000,0.028973,-1.106666,2.611558e-5
1.2400,103.3413,-44.8424,-238.2285,-103.4331,320.8808,1076.5500,-23.2290,32.7808,-40.1491,33.6084,0.0000,0.029694,-1.108803,2.365702e-5
1.2500,102.3691,-41.7680,-227.5251,-91.2793,294.5192,1064.3962,-23.6297,33.1157,-39.9854,33.3736,0.0000,0.030442,-1.110958,2.142738e-5
1.2600,101.5107,-38.9424,-216.9356,-80.6146,271.0392,1053.7314,-24.0288,33.4483,-39.8233,33.1403,0.0000,0.031213,-1.113132,1.937358e-5
1.2700,100.7527,-36.3394,-206.4464,-71.1907,249.9194,1044.3075,-24.4262,33.7785,-39.6625,32.9086,0.0000,0.032005,-1.115325,1.746240e-5
1.2800,100.0834,-33.9375,-196.0460,-62.8130,230.7513,1035.9299,-24.8220,34.1065,-39.5032,32.6786,0.0000,0.032815,-1.117536,1.567412e-5
1.2900,99.4934,-31.7190,-185.7248,-55.3278,213.2129,1028.4447,-25.2163,34.4321,-39.3453,32.4500,0.0000,0.033639,-1.119766,1.399820e-5
1.3000,98.9743,-29.6687,-175.4745,-48.6122,197.0479,1021.7290,-25.6089,34.7555,-39.1888,32.2230,0.0000,0.034475,-1.122014,1.242982e-5
1.3100,98.5189,-27.7741,-165.2880,-42.5666,182.0500,1015.6835,-26.0000,35.0766,-39.0337,31.9976,0.0000,0.035317,-1.124281,1.096713e-5
1.3200,98.1210,-26.0244,-155.1589,-37.1098,168.0517,1010.2266,-26.3896,35.3954,-38.8799,31.7736,0.0000,0.036163,-1.126566,9.609291e-6
1.3300,97.7750,-24.4102,-145.0817,-32.1740,154.9151,1005.2908,-26.7776,35.7120,-38.7275,31.5511,0.0000,0.037008,-1.128870,8.355257e-6
1.3400,97.4760,-22.9236,-135.0515,-27.7021,142.5257,1000.8190,-27.1642,36.0264,-38.5763,31.3301,0.0000,0.037847,-1.131192,7.203123e-6
1.3500,97.2196,-21.5575,-125.0639,-23.6455,130.7875,996.7624,-27.5492,36.3386,-38.4265,31.1105,0.0000,0.038674,-1.133532,6.149969e-6
1.3600,97.0018,-20.3059,-115.1150,-19.9620,119.6188,993.0788,-27.9327,36.6487,-38.2780,30.8924,0.0000,0.039484,-1.135891,5.192015e-6
1.3700,96.8192,-19.1635,-105.2012,-16.6142,108.9500,989.7310,-28.3147,36.9565,-38.1308,30.6756,0.0000,0.040270,-1.138268,4.324935e-6
1.3800,96.6686,-18.1255,-95.3194,-13.5690,98.7203,986.6859,-28.6953,37.2622,-37.9848,30.4603,0.0000,0.041026,-1.140663,3.544230e-6
1.3900,96.5469,-17.1878,-85.4666,-10.7965,88.8769,983.9133,-29.0744,37.5657,-37.8400,30.2463,0.0000,0.041745,-1.143076,2.845573e-6
1.4000,96.4518,-16.3468,-75.6403,-8.2689,79.3728,981.3857,-29.4521,37.8671,-37.6965,30.0337,0.0000,0.042419,-1.145508,2.225075e-6
1.4100,96.3808,-15.5993,-65.8382,-5.9606,70.1662,979.0775,-29.8284,38.1664,-37.5542,29.8224,0.0000,0.043042,-1.147958,1.679460e-6
1.4200,96.3319,-14.9426,-56.0581,-3.8478,61.2191,976.9646,-30.2032,38.4636,-37.4131,29.6124,0.0000,0.043606,-1.150425,1.206141e-6
1.4300,96.3033,-14.3742,-46.2983,-1.9077,52.4974,975.0246,-30.5766,38.7586,-37.2732,29.4037,0.0000,0.044105,-1.152911,8.032215e-7
1.4400,96.2931,-13.8918,-36.5569,-0.2269,44.1012,973.3437,-30.9487,39.0516,-37.1345,29.1964,0.0000,0.044530,-1.155415,4.623046e-7
1.4500,96.2950,-13.4876,-26.8276,0.4588,36.9196,972.6580,-31.3193,39.3426,-36.9969,28.9903,0.0000,0.044878,-1.157937,2.427078e-7
1.4600,96.3009,-13.1517,-17.1024,0.6815,30.2972,972.4353,-31.6886,39.6315,-36.8604,28.7854,0.0000,0.045144,-1.160476,5.145072e-8
1.4700,96.3081,-12.8810,-7.3784,0.7550,23.8515,972.3619,-32.0565,39.9183,-36.7251,28.5819,0.0000,0.045323,-1.163033,8.573296e-8
1.4800,96.3157,-12.6744,2.3451,0.7500,17.4972,972.3668,-32.4231,40.2031,-36.5909,28.3795,0.0000,0.045411,-1.165609,1.618229e-7
1.4900,96.3230,-12.5309,12.0690,0.7045,11.1893,972.4124,-32.7884,40.4859,-36.4578,28.1784,0.0000,0.045406,-1.168201,1.755539e-7
1.5000,96.3297,-12.4505,21.7934,0.6468,4.8943,972.4700,-33.1523,40.7667,-36.3258,27.9784,0.0000,0.045306,-1.170812,1.261960e-7
1.5100,96.3360,-12.4331,31.5184,0.5982,-1.4121,972.5186,-33.5149,41.0455,-36.1949,27.7797,0.0000,0.045112,-1.173440,1.315796e-8
